0.24857362116712814
0.24762270194521366
0.24567081512128386
0.24545393880751387
0.24792632878449164
0.25044765495534566
0.25226290175741306
0.25368272663574787
0.2551948364900885
0.2566614393914116
0.25878682726635743
0.26066197324079937
0.262777351439725
0.2649594608121183
0.26645090253912107
0.2672550131794067
0.26728170564879383
0.2671916185646125
0.26769877548296683
0.26837276033499047
0.26838277001101063
0.267752160421741
0.2671449067431851
0.26675119281972576
0.26593707250341997
0.2646491608554936
0.26354142337593
0.2625137633045277
0.2615795268759801
0.26053184745253744
0.2596243034933769
0.25939074438624
0.25984785292449364
0.2608288011744686
0.2617863935137299
0.2626372159754429
0.263411297587668
0.2642220813453004
0.26516299089119477
0.26674785626105224
0.26853291515131283
0.27027459877881943
0.27137232658236277
0.2715424910747054
0.2724667178272328
0.27526609055420226
0.2782289546561675
0.28087150912548775
0.2819458810183175
0.2815454939775114
0.280994961796403
0.28023756297754476
0.2791064695872675
0.27815221380667954
0.2766874645490639
0.2734610123119013
0.26991425044209383
0.26694804978145514
0.2650228554269124
0.26321444062593813
0.26070534850355315
0.2578659370725031
0.2550065062894128
0.25198024757265325
0.24962797370791737
0.24817990724366862
0.24736245036868945
0.2460345000166825
0.24483667545293755
0.24478329051416342
0.24601781722331556
0.24779620299622943
0.24998832204464289
0.25226051850121756
0.2534316505955755
0.2527176270394712
0.25060558539921896
0.25013513062627185
0.2526041840445762
0.2571919522204796
0.2649561242534448
0.2803510059724398
0.30715358179573565
0.3409696039504852
0.37873944813319516
0.41464081945880993
0.4372827066163956
0.44686863968502866
0.445907710787094
0.4384671849454471
0.42508758466517615
0.4025824964131993
0.3685462613860063
0.32767341763704905
0.28369423776317093
0.24442627873611147
0.22190450769076767
0.21336291748690392
0.21377998732107698
0.21872476727503246
0.22603850388709076
0.23443995862667238
0.2432785025524673
0.25335490974608776
0.26394848353408285
0.2734376564011877
0.2801708318040772
0.2841646925361182
0.2865836975743218
0.28879249941610213
0.29129491842114036
0.2942344266123919
0.29705715525007503
0.2988922625204363
0.3000533849387741
0.3010943912448699
0.30233559107136887
0.30389376397183937
0.306052517433519
0.3084181375329485
0.311114076941043
0.314500683994528
0.31858129525207696
0.32270194521370654
0.32657902639217906
0.3299322678589302
0.33350905875679815
0.3377231323612825
0.34215408227953675
0.3465383203763637
0.3502986220012677
0.3534950452103699
0.3569283640852823
0.36122251509792785
0.3664308831870807
0.37269694037569634
0.3793700577224649
0.38590637616362466
0.3932334590103765
0.401478095492309
0.4109939608288009
0.4215474959127154
0.43217109872877096
0.44259117146575006
0.4526408861899835
0.4621767708785158
0.47144906743185067
0.48011411030662965
0.48594307830903194
0.488739114477328
0.4888592305895698
0.4862667245003502
0.481038337059157
0.472980547862934
0.46264055253411607
0.4507156918354407
0.4369323679556903
0.42149077441526794
0.4061592873110672
0.3920923559440791
0.3788729104801306
0.36641086383504035
0.35494311167461856
0.344753261486103
0.3355343498715423
0.3270728370758398
0.32014947782856745
0.3145674151679956
0.3095325481298587
0.30420406392846405
0.29869540555870666
0.2935938073471021
0.2890761069033398
0.2853658536585365
0.28235961429381723
0.2795969437122551
0.2764872710286609
0.2732541456741515
0.27044809982983536
0.26892662907477216
0.26859964632478045
0.2684328183911112
0.26799906576357124
0.2674318507890959
0.2672083013579791
0.26735177338093463
0.26806913349571226
0.26924026559007014
0.27044142671248844
0.2709519201895162
0.27089519869206863
0.27121884488338693
0.27160254913082615
0.2716492609522535
0.27145907710787065
0.27094858363084284
0.2701244536385169
0.2693904107303724
0.2690600914217074
0.2687130893196754
0.26819925928397426
0.2671749357712453
0.26629074772279837
0.2657135230723029
0.2647025457942675
0.263708251309599
0.2635480964932766
0.2635447599346032
0.2630242567815552
0.26236361816422515
0.26195655800607226
0.26209669347035447
0.26262386974074914
0.26310767074838987
0.26399185879683673
0.2646758533248805
0.26432217810550174
0.2636348470187846
0.26304761269226895
0.2630209202228818
0.2631677288045108
0.26291081378666015
0.2622802041973905
0.2615428247305726
0.2605718861566178
0.25954422608521543
0.25842981548830507
0.2575789930265921
0.2572887124220077
0.25701845116946354
0.25700510493477
0.2570718361082377
0.25675152647559274
0.2563244469653996
0.2557472223149041
0.25559374061592843
0.25639785125621406
0.25714190384037877
0.25739881885822935
0.2572286543658867
0.2566314103633509
0.2556304427613356
0.25441927196289715
0.25354509359047045
0.25360181508791796
0.25413900103433285
0.2539955290113773
0.2536151613226115
0.2532781688965997
0.2526075206032495
0.25169997664408894
0.25078575956758165
0.2504454305828965
0.2502085349170862
0.24921424043241772
0.24763938473858035
0.24651830102432326
0.2457141903840377
0.24483333889426423
0.24454305828967984
0.2441026325447931
0.243528744452971
0.24280471122084663
0.2419605618764804
0.24173367588669029
0.2420039371392344
0.2423809682693268
0.24298822194788272
0.24343865736878958
0.24358880250909185
0.2441093056621398
0.24502018617997373
0.24678856227686738
0.24998164892729613
0.2529211571185477
0.2551499783123684
0.25649461145774227
0.25637449534550044
0.2562743985852989
0.2564078609322343
0.25625437923325856
0.25593740615928706
0.2549898234960459
0.252464048580294
0.24970137799873182
0.24753928797837882
0.24606452904474302
0.24493343565446574
0.24299155850655613
0.2410163157719126
0.23978846218010724
0.23878082146074514
0.23744286143271806
0.23622835407560622
0.23563444663174385
0.23499049080778067
0.23404624470321292
0.2338794167695437
0.23503720262920808
0.2361516132261184
0.2366187314403922
0.23683560775416215
0.23660204864702522
0.2355376864302156
0.23315204697874586
0.23180741383337203
0.23398618664709195
0.2397017116545992
0.24797971372326555
0.26258049447799514
0.28844883387274334
0.3227987054152344
0.36132261185812925
0.4000834139668343
0.4264522371625902
0.4392846418204261
0.44129658670047683
0.43517733809349013
0.42356611391011284
0.4040105435254076
0.372616862967535
0.3327816889660002
0.2898268326048511
0.24902405658803478
0.22441026325447902
0.214607453872076
0.21338960995629072
0.21675953421640887
0.22280204197390777
0.230853158052784
0.24024557071836075
0.2501217843915782
0.2597544292816386
0.26801241199826464
0.27361449401087684
0.2770411397684425
0.2793600480464446
0.2818391111407691
0.2842547796202993
0.2866470921891159
0.2887190951252875
0.29086450235227357
0.29315671816088856
0.29593940809449104
0.2985752894464646
0.30106436221680927
0.3039338026759197
0.30675986787227616
0.3098295018517897
0.313209435787928
0.31682626538987657
0.3204130659637646
0.32389309666010446
0.32679590270594877
0.3295952754329182
0.3326815922057987
0.3357011778052114
0.33888425477962
0.34233425644789933
0.34582763337893263
0.3496580027359778
0.3542023956491272
0.3599079109806143
0.36666444229421746
0.374518701411364
0.3830235894698205
0.39166193987521236
0.4007273697907975
0.4101798405124951
0.4201828434153011
0.430652964532381
0.4413166060525171
0.4515431583864399
0.46119915918721405
0.4701311267558637
0.47787861599546194
0.48436822261519435
0.4891528477528274
0.4913616495946078
0.4903206432885119
0.48679056421207134
0.48053451669947583
0.4717793867405155
0.4611524473657866
0.44860698675386174
0.4347135564378896
0.42048313369590573
0.406045844316172
0.39224917420172806
0.37948016415868646
0.3673184077942008
0.35599746421540795
0.3456174301825095
0.3365419905909043
0.32881452070334627
0.32227486570351316
0.3164225417903971
0.3108571619231921
0.30550865836975716
0.301131093390277
0.29774448633679196
0.29509859530879823
0.29301324613793306
0.2908911948216607
0.28867238330386014
0.28642687931667254
0.28409128824530355
0.28221614227086156
0.2810149811484432
0.27978379099796447
0.27807547295719165
0.2766207333755961
0.27527943678889566
0.2739948616996427
0.2730372693603814
0.27225317807213606
0.2719962630542855
0.2720129458476524
0.2720262920823459
0.27210303293183374
0.27230989956958357
0.27211971572520066
0.27163591471755993
0.27120883520736677
0.2709952954522702
0.2711621233859394
0.27091188148543555
0.270568215942077
0.27024790630943213
0.26949384404924726
0.26864635814620763
0.26799906576357113
0.26752527443195057
0.266460912215141
0.2646758533248804
0.2630342664575754
0.26190984618464486
0.26092222481732313
0.2599245937739812
0.2592405992459374
0.2587200960928895
0.25817957358780125
0.257508925294451
0.2569283640852821
0.2570551533148707
0.25712855760568515
0.2566180641286574
0.2561743018250973
0.2558139534883718
0.25561709652664216
0.2555336825598076
0.25534016215675126
0.2548963998531911
0.25447265690167137
0.25368522905475266
0.2530846484935435
0.25332154415935376
0.25330152480731344
0.25302459043742254
0.2528711087384468
0.25255747222314867
0.25206032498081443
0.25194688198591936
0.25215041206499583
0.25241400020019317
0.2524874044910076
0.2520970271262217
0.2514463981849117
0.25105602082012574
0.25059223916452533
0.25022521771045303
0.25014847686096525
0.24993493710586864
0.2496546661773044
0.24928430816455868
0.2483467351773377
0.24708885255747184
0.24614794301157747
0.2457275366187311
0.24556738180240867
0.2449601281238527
0.24406926695805908
0.24352207133562404
0.24317506923359206
0.24312168429481792
0.24346534983817653
0.24402589169530509
0.24456641420039332
0.24470988622334885
0.2445664142003933
0.244746588368756
0.24497013779987276
0.24471989589936896
0.24437623035601036
0.24383237129224872
0.24315171332287835
0.2424844015882015
0.24158686730506113
0.24030229221580818
0.2392979880551195
0.23876413866737806
0.2386240032030959
0.23840712688932592
0.2379033065296449
0.23744619799139124
0.2367822228153878
0.2365253077975372
0.23713256147609313
0.23750291948883878
0.23786660438423762
0.2386607053485031
0.23972506756531264
0.24118314370558158
0.2426645757565642
0.24403923792999854
0.2464649160855489
0.25009175536351763
0.25343498715424867
0.25687164258783446
0.2591905508658366
0.2598645357178602
0.2599512862433682
0.25987788195255374
0.259307330419405
0.25822962196790195
0.25643455340162113
0.2535050548863898
0.25046211337626334
0.2480264255446928
0.24618464515698468
0.24472656901671574
0.24334189716726123
0.24175035868005695
0.2406626405525337
0.24005872343265117
0.23976844282806678
0.23919121817757127
0.23841380000667275
0.23748623669547192
0.23681225184344828
0.2366020486470251
0.23633512395315437
0.23595809282306193
0.23585132294551361
0.23583797671082007
0.23539087784858656
0.2344432951853454
0.23218444496346424
0.23057288712421964
0.23245804277468177
0.2374728904607783
0.2451302926161952
0.25865670147809505
0.28245637449534505
0.3158720096092885
0.35413232791698596
0.3943111674618794
0.42342597844583063
0.437556304427613
0.4403223115678486
0.4354008875246068
0.42544793300190153
0.4081845784258113
0.3792099029061423
0.34013546428213914
0.29713389609956264
0.25464282139401395
0.2266557672416667
0.21474425277768483
0.21188815855326787
0.21383003570117753
0.21858129525207676
0.2252544125988453
0.23346902005271736
0.2428714423943142
0.25192352607520574
0.25913382936838913
0.2645891027993724
0.26839277968703046
0.27123552767675385
0.2740949584598442
0.2771278902939505
0.2804377564979477
0.28371425711521103
0.2865503319875877
0.2893096660104765
0.2921257215308128
0.29481165126288716
0.2974708885255744
0.3001568182576487
0.30307964365553336
0.3060258249641317
0.309058756798238
0.31239531547162225
0.31605552033632484
0.3195255413566445
0.32315905375196
0.3274031563845048
0.3318908278002066
0.33674885722865416
0.3414934436622066
0.3458343064962795
0.3500183510727034
0.35409896233025234
0.358289680024023
0.36347802876113555
0.3693403623502717
0.3752660905542022
0.38174902405658784
0.3885556037502918
0.39600613926795886
0.40426078542591154
0.41312935837976694
0.4225651463080977
0.43230789763437977
0.44182709952954513
0.450969270294618
0.45955423576123566
0.46699476160288256
0.4732975209369054
0.47790197190617567
0.4803576790897865
0.48031430382703244
0.47747822895465575
0.47202962864101927
0.46401521470755025
0.4534016215675149
0.44080277601681594
0.4271028661039001
0.4129291648593637
0.3987621367321741
0.38474191718661344
0.37123886423542724
0.3588368756464579
0.3474525374528708
0.33705915718527885
0.32814387240999604
0.32067999065763547
0.31418371092055625
0.30829134830335964
0.3030896533315536
0.29893563778319016
0.29543558773481005
0.29229922258182883
0.28970004337526245
0.28755129958960296
0.28529244936772186
0.28302692602849394
0.2805411898168227
0.2779153181408692
0.27526942711287555
0.2724900737379464
0.2697774515364851
0.26760868839878527
0.2655533682559806
0.26347469220246217
0.26175302792699584
0.25984451636582007
0.2581962563811682
0.25693503720262895
0.25601414700877484
0.25596743518734744
0.25666477595008474
0.25730205865670114
0.25798271662607153
0.2584398251643252
0.2589870207867602
0.2597544292816386
0.260825464615795
0.26199993326882626
0.2628440826131925
0.26287411164125296
0.2621400687331084
0.26094224416936346
0.25977444863367893
0.25946081211838085
0.25951753361582836
0.25962096693470327
0.2591471756030827
0.25851656601381306
0.2583030262587165
0.2583363918454503
0.25857996062860733
0.2589870207867603
0.2593807347102196
0.2591204831336956
0.2582896800240229
0.25761569517199934
0.2573621167128221
0.2569850855827297
0.2564779286643753
0.25570384705215016
0.25477628374094935
0.2539554903072968
0.2530646291415032
0.25265089586600353
0.25258082813386246
0.2522872109706046
0.2518868239297985
0.251136098228287
0.2498882252844413
0.24900737379466786
0.24875045877681728
0.24866037169263594
0.24831670614927734
0.24767275032531416
0.24717893964165333
0.24683527409829473
0.24643488705748862
0.24641153114677494
0.24674852357278673
0.2466417536952384
0.24605451936872277
0.24533048613659836
0.24495345500650592
0.24467985719528845
0.24424610456774848
0.2438390444095956
0.24355877348103133
0.24323179073103968
0.24294818324380202
0.2431050015014511
0.24318174235093895
0.24307830903206407
0.24276467251676595
0.24252110373360886
0.2422808715091252
0.24203730272596813
0.24165026191985556
0.2415268092489403
0.24176036835607723
0.24170698341730307
0.24163024256781523
0.2416502619198555
0.24136999099129125
0.2401855126622398
0.2381668946648423
0.2361716325781585
0.23480030696339757
0.23339561576190282
0.23143705582062624
0.22948516899669644
0.22762336925694804
0.22609188882586467
0.22516098895599046
0.22512095025190987
0.225938407126889
0.22656568015748527
0.2265756898335054
0.22656901671615862
0.22681592205798906
0.2270828467518598
0.22709952954522672
0.22692936505288414
0.2269560575222712
0.22705615428247267
0.22757999399419404
0.228821193820693
0.23052951186146578
0.2318374428614324
0.23339561576190287
0.23507390477461515
0.2381001634913747
0.24243435320810086
0.2464515698508555
0.25001167795535656
0.2518801508124517
0.2520069400420403
0.2519669013379596
0.25211704647826194
0.2516933035267421
0.2513896766874641
0.24985485969770732
0.2465249741416698
0.24322178105501938
0.24036902338927582
0.2384671849454468
0.2372326582362946
0.23540422408328004
0.2335924727236324
0.23214774281805703
0.23034933769310295
0.22834740248907243
0.22642220813452968
0.22472389976977708
0.22324914083614122
0.222274865703513
0.22178105501985215
0.22173100663975137
0.22170097761169089
0.22168429481832397
0.2218678055453601
0.22201127756831562
0.22133395615761864
0.2191385005505318
0.21768376096893624
0.21955557038470483
0.22456040839478125
0.23178405792265822
0.24480330986620363
0.2684862033298852
0.30099429448466813
0.3384004537719792
0.37664408928630966
0.40328651029328305
0.41627239665009463
0.417473557772513
0.41072036301758325
0.3992959861199155
0.3802475726535647
0.3492242501084377
0.30874178372426636
0.2638750792432681
0.22101030996630033
0.19365052884454928
0.18116178973007194
0.1784591772046307
0.18111174134997118
0.18661372660238187
0.19463147709452427
0.2040939574922421
0.21480097427513223
0.22578158886923988
0.2352140402388972
0.24229755430249197
0.24755930733041903
0.2515164659170528
0.2552033632511424
0.2587301057689096
0.26168296019485465
0.2646558339728401
0.26714490674318475
0.2693837376130256
0.272052984551733
0.27516933035267394
0.27845917720463087
0.28207934336525275
0.2857028460845481
0.2889526542324244
0.29232925160988926
0.2962063327883618
0.30055053218110805
0.30497480898201557
0.3091054686196653
0.31305595408895226
0.3166661105735541
0.3198591972239828
0.3232691601881815
0.3273664542390974
0.3318140869507186
0.3364485669480494
0.34130325981782356
0.346681792399319
0.3524440292282537
0.35832304561075673
0.3648326715825294
0.37220646625070863
0.3804944779953951
0.389246271395682
0.39833505722198076
0.4073104000533845
0.4168496213005901
0.426799239264622
0.4368155884021216
0.44665176337125845
0.45550699009042034
0.46273063961829736
0.46784558406459553
0.47091188148543567
0.47144239431450374
0.4694504687864933
0.4643221781055017
0.4562310233225449
0.4458242968202593
0.4335958092823059
0.42043975843315173
0.4067098194921755
0.39266958059457446
0.3791531814086948
0.3671582529778784
0.35643121684294793
0.3467885622768674
0.33826365486637056
0.330869840846151
0.3244703213106
0.3187581328617661
0.3140235561042338
0.30978279003036235
0.30588235294117616
0.30177504921424014
0.29801808414800945
0.2947215641787058
0.2918020753394946
0.28912615528344043
0.28648693737279346
0.2842414333856058
0.2824530379366718
0.2810316639418101
0.2794668179239929
0.27813553101331256
0.27688765806946686
0.2754162356945044
0.2740182176103564
0.2732341263221111
0.27320409729405065
0.27337759834506664
0.2737246004470986
0.27402822728637655
0.2744152680924891
0.2749758099496177
0.27558306362817364
0.27648059791131396
0.2775716525975106
0.27782856761536123
0.2776450568883251
0.2775549698041437
0.2774548730439422
0.2774915751893494
0.27742150745720834
0.27726468919955927
0.27745487304394223
0.2781588869240263
0.27886957392145717
0.2795235394214405
0.2799939941943876
0.2803910446765203
0.28057455540355647
0.2806012478729435
0.28067131560508457
0.28097160588568915
0.2807213639851854
0.279893897434186
0.27907310400053353
0.2787594674852354
0.2786727169597274
0.2785025524673848
0.2781088385439255
0.2778886256714821
0.2778152213806676
0.27763504721230486
0.27771846117913945
0.27784858696740145
0.2780587901638246
0.27835240732708244
0.27889292983217073
0.2798471856127586
0.2807914317173264
0.28147542624537014
0.28210269927596643
0.2824063261152444
0.2825531346968733
0.2829902238830867
0.28329718728103803
0.28353074638817494
0.283470688332054
0.2829802142070665
0.28266991425044175
0.2827232991892159
0.2825965099596273
0.28258650028360716
0.2830169163524737
0.2833906109238928
0.2840645957759164
0.28460511828100465
0.28505555370191155
0.28531580527843553
0.2855527009442458
0.28576624069934237
0.2860164825998462
0.28566280738046745
0.28509225584731873
0.28496213005905674
0.28483534082946815
0.2848119849187545
0.28477861933202064
0.28478195589069405
0.2847519268626336
0.2847719462146739
0.28495545694171
0.2856094224416933
0.28628674385239034
0.28633345567381774
0.2859630976610721
0.28529578592639526
0.284581762370291
0.28405792265856966
0.283514063594808
0.2821527476560673
0.28084481665610067
0.2800673984852021
0.27915985452604153
0.278008741783724
0.2766741183143703
0.2755196690133793
0.274562076674118
0.27353775316138906
0.27287044142671224
0.2729004704547727
0.27261018985018826
0.27206299422775326
0.27247005438590616
0.2738714090287276
0.27579993994194363
0.27744152680924866
0.27873277501584837
0.2805378532581493
0.2834106302759331
0.2867405158319706
0.28984685195689136
0.2922158086149942
0.2930866504287475
0.2931467084848684
0.29268626338794135
0.2922024623803007
0.29181875813286146
0.29099462814053556
0.28873244135998105
0.2858162890794432
0.28327049481165095
0.28074471989589905
0.2782055987454536
0.27561642921490737
0.2735310800440422
0.27182943512061625
0.2702011944880047
0.26821927863601447
0.26647425844983447
0.26511961562844044
0.2637516265723529
0.26296086216676084
0.26274398585299086
0.26292749658002695
0.2627906976744182
0.2623736278402452
0.26236695472289845
0.26249040739381363
0.2618497881285239
0.25975109272296515
0.25745554035567675
0.25741550165159616
0.26058523239131126
0.26593707250341964
0.2752060324980811
0.29261285909712687
0.32028294017550263
0.35459277301391307
0.39321010309966264
0.426198658703413
0.44451970237896604
0.44992159087117506
0.44603450001668243
0.43754295819291944
0.42418337726468874
0.40203863734943734
0.3687531280237558
0.32863434653498336
0.28571952887791485
0.25190684328183865
0.2354142337593002
0.2312568816522634
0.23443328550932524
0.24068933302192078
0.24865369857528902
0.25823295852657524
0.2690400720696669
0.28041106402856053
0.2913116012145069
0.30065062894130945
0.30787427846918636
0.31364986153281454
0.3184912081678951
0.32275199359380685
0.32679590270594855
0.33032264522371574
0.3329151513129353
0.3356411197490903
0.3380801441393342
0.33987521270561494
0.3421974575422904
0.3446431550498811
0.34712889126155233
0.3494744920089415
0.3518701411364314
0.35433252143738897
0.35728871242200744
0.3605818958326377
0.36430215875346117
0.36808581628907894
0.37105201694971757
0.37416168963331164
0.37754162356944987
0.3815421574188377
0.3854459310666973
0.38932634880384326
0.39385072236495233
0.3985819625638113
0.4034633479029724
0.40892529445130243
0.41546494945113566
0.4225150979279966
0.4298388442160751
0.43774982483066915
0.44611791398351686
0.4551966901337955
0.4648460178172228
0.4746688465516661
0.48430149144172646
0.4934636815588397
0.50200193520403
0.509816155617096
0.5162490407393809
0.520599913249474
0.5227686763871737
0.522057989389743
0.518264322178105
0.5117546962063323
0.5032364619131823
0.49277635047212254
0.4805645457275361
0.4670314637482895
0.4530579560241561
0.4386907343765635
0.42497414167028075
0.4128857895966095
0.40166827933669164
0.39161522805378485
0.3824897400820788
0.3743318541256543
0.3671115411564507
0.36074205064896014
0.35491308264655785
0.3498648693737275
0.3455139968636344
0.34121984585098886
0.33758633345567335
0.33414967802208756
0.33082312902472344
0.3279603616829597
0.32529111474425226
0.32250842481064984
0.32021620900203485
0.3186213339561571
0.31678289012712235
0.31453404958126135
0.3121484101297916
0.30998632010943855
0.3081512128390772
0.3064095292115706
0.30484134663508
0.30366354142337537
0.3026158619999327
0.30155149978312307
0.3007907644055915
0.30049381068366027
0.30033031930866444
0.30043041606886595
0.3008308031096721
0.3013746621734337
0.30201528143872347
0.3025824964131988
0.3027760168162551
0.30233225451269496
0.3014780954923086
0.3007140235561036
0.2998932301224511
0.29865536685462557
0.2970604918087479
0.2955790597577653
0.29390410730372635
0.2923626171966228
0.2910279937272692
0.29000700677321356
0.28920289613292793
0.2879950618931629
0.2871409028727765
0.28670047712788976
0.28649694704881334
0.2862834072937167
0.2859764438957654
0.28541256547996346
0.2848253311534478
0.28416135597744435
0.28356077541623514
0.2834473324213401
0.2831837442861428
0.2825030863167724
0.2817723799673012
0.28134863701578144
0.2811517800540518
0.2810950585566042
0.28085816289079396
0.2807313736612054
0.28055119949284263
0.28030763070968556
0.2797637716459239
0.27928664375562995
0.27903973841379953
0.27812552133729224
0.2771312268526237
0.27633378932968483
0.2755630442761331
0.2746221347302387
0.2738447165593402
0.27332421340629226
0.2731673951486432
0.2732141069700706
0.27300724033232077
0.2730272596843611
0.27309732741650217
0.27295719195222007
0.27318407794201016
0.2735911381001631
0.2734710219879212
0.272973874745587
0.27229655333488995
0.2718027426512291
0.27141236528644314
0.27096192986553624
0.2704914750925891
0.27003436655433544
0.26925361182476354
0.2688765806946711
0.2689700043375258
0.26900003336558626
0.269153515064562
0.2689266290747718
0.268416135597744
0.2680924894064257
0.26771545827633336
0.26746187981715613
0.26749524540388997
0.26728837876614014
0.26682793366921315
0.26636415201361274
0.2658636682126051
0.2655533682559804
0.26591705315137926
0.26680124119982607
0.26823596142938133
0.26978746121250496
0.2712321911180804
0.27272363284508316
0.27505255079910534
0.2782823395949413
0.2818424476994423
0.28532247839578206
0.28715091254879666
0.2874879049748084
0.28730773080644567
0.28654032231156734
0.2851890160488467
0.28361082379633595
0.2812485402555799
0.27837576323779606
0.2753828701077704
0.27267692102365576
0.2712054986486933
0.27007440525841603
0.26837609689366343
0.26684127990390666
0.26591038003403245
0.2651496446565008
0.264378899602949
0.26342798038103454
0.2623569450468782
0.2613092656234355
0.2598178238964327
0.25856995095258695
0.2579993994194382
0.25766908011077316
0.25788595642454315
0.2581829101464744
0.25829301658269604
0.25724533715925335
0.25506322778686
0.25393547095525615
0.25656801574855637
0.26279069767441804
0.2718961662940837
0.28688732441359927
0.3119248606986748
0.34595442260852105
0.3846651763371254
0.4241400020019347
0.4518534583430644
0.4649394414600776
0.46639418104167313
0.4606653097994724
0.44983484034566706
0.43162056654766234
0.402252177104534
0.36353475025858295
0.32084014547395784
0.2794401254546058
0.2531747355777248
0.24233425644789927
0.24148677054485965
0.24511694638150178
0.2511761369323676
0.25920723365920356
0.2684862033298852
0.2785993126689129
0.2887257682426342
0.29775115945413866
0.30455440258916916
0.30961596209669306
0.3133495712522101
0.3165760234893727
0.3196223015581725
0.32190784424944074
0.3241400020019348
0.32647559307330376
0.32856427880284234
0.33097327416502575
0.3338427146241362
0.3367855593740612
0.3394481331954219
0.3423109005371856
0.34524707216976375
0.34849688031764003
0.3515565046211334
0.35437923325881654
0.35726535651129393
0.3599979980647957
0.36235360848820497
0.3648193253478359
0.3673150712355273
0.3696406526308761
0.37229988989356344
0.37564979480164123
0.37923993193420275
0.38341730339327984
0.3880517833906106
0.3931467084848683
0.3988055119949281
0.4049848186580357
0.4116979747088849
0.41933535751226153
0.4272663574788959
0.4358146208001064
0.4452637549631306
0.45502986220012637
0.4649027393146704
0.47464215408227906
0.48411798071469037
0.4927363117680419
0.5007674084948779
0.5067798872243163
0.5102599179206562
0.5107170264589097
0.5077908645023517
0.5016449234259779
0.4928797837909974
0.4818557939341357
0.4689166193987515
0.4544659837843243
0.43866070534850293
0.42296219679022995
0.40766407527276305
0.3931166794568076
0.37997063828367356
0.36825931734009476
0.3579593607153575
0.349064095292115
0.3411130759734403
0.3342998231623896
0.32868439491508383
0.3238864235427573
0.32028294017550224
0.3174635480964925
0.31484101297921246
0.3124386907343758
0.3101631577191278
0.30800774081612153
0.3061659604284134
0.3042707951019311
0.3023289179540215
0.30008007740816045
0.29755763905108196
0.29499182543124947
0.292496079543558
0.29033065296453164
0.2889693370257908
0.28793500383704174
0.2869373727936998
0.2866804577758492
0.28644022555136556
0.2862900804110633
0.28680391044676445
0.28798505221714255
0.28929631977578263
0.2902972873777979
0.2909045410563539
0.29156184311501054
0.29241933869407033
0.29256948383437265
0.29289980314303765
0.2934469987654727
0.29328017083180347
0.29228587634713493
0.2913216108905269
0.2905008174568743
0.28965666811250806
0.28863568115845245
0.2873277501584858
0.2864168696406518
0.2855426912682252
0.28474525374528636
0.2838910947249
0.28309365720196117
0.2823896433218771
0.2817823896433212
0.2808648360081405
0.27999399419438725
0.2795268759801134
0.27910313302859363
0.2789930265923719
0.27842914817656994
0.2777851923526068
0.27725467952353866
0.2768242634546721
0.27629708718427737
0.2759767775516325
0.27567648727102795
0.27534283140368954
0.2750058389776778
0.2741383337225979
0.27360782089352975
0.27358780154148943
0.27347769510526776
0.27337759834506625
0.2740048713756625
0.2749357712455367
0.27588669046745123
0.27626038503887024
0.276180307630709
0.2764138667378459
0.2765306462914144
0.27642721297253947
0.27623702912815656
0.2757765840312295
0.2746755196690127
0.2729972306563004
0.2712021620900197
0.2703513396283067
0.27006773214106905
0.26950719028394043
0.2689199559574248
0.26846284741917115
0.2680057388809175
0.2678789496513289
0.26758533248807115
0.26730839811818025
0.2670581562176764
0.2663975176003463
0.2657168596309759
0.26537986720496415
0.26519301991925465
0.26491608554936374
0.26463581462079944
0.2639451469754089
0.2634213072636875
0.26308765139634904
0.2628374094958453
0.2627072837075833
0.26243368589636573
0.26208001067698705
0.26175302792699534
0.26143271829435044
0.2613226118581288
0.26106569684027814
0.2607020119448793
0.2607020119448793
0.2605251743351899
0.2600947582663234
0.2597143905775576
0.25955423576123515
0.25946748523572716
0.25935404224083214
0.2595208701745013
0.2605885689499843
0.2622735310800433
0.26358146208000993
0.26476260385038797
0.2660271595876006
0.268436154949784
0.2717260018017409
0.27507924326849204
0.27797203963831624
0.27960695338827457
0.2798571952887784
0.27988055119949207
0.27995395549030655
0.28024757265356437
0.28034766941376593
0.2789863534750251
0.2766574355210029
0.2745420573220773
0.2732040972940502
0.2723966500950912
0.2717126555670474
0.2706182643221774
0.26957725801608146
0.26877648393446923
0.2685262420339654
0.2682059324013205
0.26751526475592996
0.2665176337125881
0.26497948016415795
0.26354142337592934
0.26280070735043803
0.26268059123819615
0.26262386974074864
0.26201661606219273
0.2607854259117139
0.2595308798505214
0.2578325714857688
0.2560274932434679
0.25676153615161246
0.2615161322611851
0.26930032364619055
0.27998064795969363
0.2980981615561702
0.32747656067531866
0.36405191685295707
0.40453771979580183
0.4421907844249434
0.4649728070468112
0.4738380434419932
0.47170598244970074
0.4631076707483895
0.4495879350038365
0.42717293383604094
0.39309666010476735
0.3519769110139796
0.3077741817089848
0.2686330119115139
0.24669180207533895
0.23833038603983797
0.2384805311801403
0.24270461446064479
0.24878716092222436
0.25668479530212496
0.2655266757865933
0.2748123185746217
0.28397450869173485
0.29151513129358336
0.29675686496947007
0.3002836074872372
0.30284608454839634
0.3049547896299752
0.3068099162523768
0.308461512795702
0.30982616529311613
0.31078042107370407
0.31208501551499734
0.31434386573687845
0.31698642020619877
0.31969904240766017
0.322328250642287
0.3252377298054781
0.32859764438957606
0.3321610890527505
0.33632177771846067
0.3406125921724329
0.34420272930499435
0.34738246972072956
0.35082246171298875
0.3543091655266753
0.3578225618097489
0.3609756097560971
0.36428881251876766
0.3677087851589865
0.370951920189516
0.37483901104400863
0.3797637716459238
0.38527576657435464
0.39112809048747066
0.3975643121684289
0.40471455740549145
0.4126655767241661
0.42124386907343697
0.4306029161522799
0.44023556104234035
0.44983150378699355
0.45940742717960636
0.46909679356711437
0.4784391578525904
0.48658703413299487
0.4933635847986383
0.4986253378265653
0.5011544493009906
0.5005638784158016
0.4974808982015945
0.4918754796303089
0.48371759367388434
0.4727670081078371
0.45951419705715474
0.4451036001468081
0.42997897968035714
0.41481765706849905
0.40052717627039414
0.3871709319008369
0.37470221213839994
0.36322445030195805
0.3528877915318136
0.34375229388408746
0.33626171966233975
0.32982216142270815
0.32401654933101953
0.31895165326482217
0.31415701845116895
0.3097127222982211
0.3065062894130988
0.30395048546928644
0.3014514030229216
0.2993126689132823
0.2971372326582358
0.2953254812985881
0.2939508191251538
0.2922792032297883
0.29078108838543876
0.28979346701811703
0.28857562310233176
0.2873377598345062
0.28641686964065216
0.2854626138600642
0.2846985419238592
0.28425811617897245
0.2844683193753957
0.2850522171432379
0.28585966434219695
0.2861799739748418
0.2860965600080072
0.28649361049013994
0.2874111641253206
0.2888091822094686
0.2899269293650523
0.2907076840946242
0.29114477328083754
0.2917253344900064
0.292139067765506
0.29287311067365057
0.293884087951686
0.29464482332921765
0.29500183510726974
0.2946381502118709
0.29430783090320584
0.2937539621634241
0.2927696773547757
0.29156851623235736
0.2906643088318702
0.29015047879616906
0.2893730606252706
0.28805511994928373
0.28677054486003084
0.2857495579059753
0.2851289579927258
0.28474191718661324
0.284505021520803
0.2843081645590733
0.28409128824530333
0.2835073904774611
0.2832704948116508
0.2834606786560337
0.2832805044876709
0.2829868873244131
0.2819458810183172
0.28054452637549576
0.27961362650562155
0.27868272663574734
0.2772346601714986
0.2751126088552262
0.27284041239865153
0.2705048213272826
0.2684862033298851
0.2670081078375759
0.266817923993193
0.2664408928631006
0.26503286510293245
0.26346134596776843
0.2618831537152576
0.26098561943211723
0.260314971138767
0.2596576690801103
0.25947082179440073
0.2591638583964494
0.25779253278168845
0.25672149744753214
0.25603082980214154
0.2557839244603112
0.2565947082179435
0.2574722231490436
0.25813953488372043
0.25930399386073155
0.26023155717193236
0.26044176036835565
0.2604350872510089
0.2605685495979443
0.2614393914116976
0.2617129892229151
0.262163424643822
0.26201661606219306
0.261903173067298
0.26058523239131126
0.2579893897434183
0.2562477061159117
0.2572486737179269
0.2573420973607817
0.25537686430215834
0.25471288912615486
0.25347502585832926
0.25344833338894224
0.25341496780220835
0.2532614861032326
0.252197123886423
0.25024190050381984
0.24776283740949534
0.24613459677688382
0.2439491508458171
0.2401354642821389
0.23821026992759617
0.236888992692936
0.23509726068532869
0.23447666077207918
0.2360281605552029
0.23803676887658023
0.23808014413933423
0.23792666244035857
0.24114310500150102
0.24457976043508683
0.24480998298355033
0.24504020553201386
0.24759600947582622
0.2495712522104697
0.2512095025191014
0.25304794634813615
0.2538620666644419
0.25548029762103325
0.2584464982816719
0.2634413266157281
0.268042441026325
0.2697574321844445
0.27063494711554453
0.2727269694037565
0.2734776951052679
0.27354442627873565
0.2757599012378628
0.2776483934469983
0.27615027860264874
0.2723299189216238
0.27009776116912965
0.26929031397017067
0.2673150712355272
0.2644322845417232
0.26245370524840633
0.2602749324346864
0.256884988822528
0.25333155383537376
0.25097260685329104
0.2501418037436184
0.24846017817223273
0.24677521604217367
0.24611457742484358
0.24630476126922649
0.24705548697073793
0.24835674485335782
0.24924760601915139
0.2493877414834335
0.24839011044009163
0.24591438390444048
0.24648159887891583
0.25002168763137655
0.25566714490674275
0.26300423742951473
0.2774014881051679
0.3024056588035096
0.33708251309599235
0.3761069033398948
0.4149344366220675
0.44083947816222296
0.4520169497180603
0.4529144840012006
0.445277101197824
0.433182076006806
0.41410363351239476
0.38364085282439636
0.34316839611624517
0.2985018851556499
0.2564879383403952
0.23114343865736825
0.22039971972907088
0.2180574555403551
0.22206132594841624
0.22742317573654475
0.2324013212772341
0.23882753328217218
0.2476794234426607
0.2581261886490268
0.26694471322278146
0.2714056921690962
0.2730172500083408
0.2744553067965695
0.2762970871842776
0.2794835007173596
0.28241967234993776
0.2846151279570246
0.2861165793600475
0.2867571986253373
0.28636348470187795
0.28735110606919967
0.29109472490073685
0.29398752127056105
0.29550899202562425
0.2970237896633407
0.2986687130893192
0.30019018384438245
0.30334990490807734
0.30683327216309053
0.3103199759767771
0.31452403990524125
0.31801408027760114
0.32164759267291665
0.32499082446364763
0.3286944045911042
0.3339061092389305
0.33918788161889774
0.34287477895298735
0.34731573854726183
0.3528377431517128
0.35871342297554254
0.36515965433252096
0.3722932167762165
0.3804144005872339
0.38774148343398573
0.3955857328751121
0.40542190784424886
0.4154549397751154
0.42533782656567964
0.4371125421240528
0.44816322445030154
0.45711187481231824
0.4652464048580291
0.472443361916519
0.47737813219445435
0.4795702512428678
0.4789262954189046
0.4761702979546891
0.4704347535951416
0.4595108604984815
0.4468152547462544
0.43431984251443023
0.4201161122418333
0.4045377197958021
0.3894998498548592
0.3767208301357974
0.364969470488138
0.35300790764405543
0.341847118881585
0.3326048513563105
0.3247372460044704
0.3179406759867866
0.31230522838744057
0.3076040172166421
0.30385372526775817
0.2998164892729632
0.2955857328751119
0.2922358279670341
0.28930299289312933
0.28670715024523635
0.28384104634479923
0.2809482499749751
0.2789663341229848
0.27754496012812313
0.27623369256948316
0.27334089619965896
0.27002435687831505
0.2678889593273491
0.26643421974575354
0.26493610490140396
0.2635080577891955
0.2625204364218737
0.26204998164892657
0.26097227319742344
0.2591805411898161
0.2584965466617723
0.2596209669347028
0.26066864635814546
0.26130926562343526
0.2624303493376924
0.26365820292949776
0.2639851856794894
0.2642521103733602
0.26477928664375494
0.2650195188682386
0.2651830102432344
0.264328851222848
0.2625504654499342
0.26136598712088277
0.2607520603249801
0.25979113142704546
0.25856661439391343
0.25657468886590296
0.25447265690167087
0.2537085849654659
0.25310133128691
0.2535350839144499
0.25384872042974804
0.25343832371292174
0.25282773347569243
0.2525174335190677
0.25308464849354306
0.2544192719628967
0.2558306362817383
0.25660138133529004
0.2565813619832497
0.2558573287511253
0.255820626605718
0.25607754162356866
0.25602749324346785
0.25588402122051235
0.2551766707817548
0.2530546194654824
0.25145307130225797
0.25088251976910925
0.25082246171298833
0.2506422875446256
0.2504154015548355
0.25031864135330734
0.2503486703813678
0.2507090187180933
0.25076907677421423
0.25196356477928583
0.252694271128757
0.25254746254712807
0.25176003470020936
0.2512095025191009
0.2505555370191176
0.25101931867471805
0.25268759801141016
0.2530979947282364
0.25249407760835385
0.2515998798838868
0.2514964465650119
0.25264088618998276
0.2537886623736269
0.2541223182409654
0.25482633212104944
0.2550065062894122
0.25346501618230866
0.2525407894297812
0.25274098295018427
0.25362517099863113
0.25406226018484446
0.2535851322945505
0.25297120549864777
0.25346167962363525
0.2529478495879341
0.25180340996296324
0.2515731874144998
0.2517033132027618
0.25149311000633856
0.25127623369256863
0.2513329551900162
0.25078909612625455
0.25014847686096475
0.24848687064161937
0.24831670614927676
0.24866704480998209
0.24702879450135043
0.24475326148610238
0.24456641420039285
0.2442694604784616
0.2431050015014505
0.24208735110606833
0.24189049414433866
0.24230089086116496
0.24202395649127406
0.2409195555703839
0.24196389843515315
0.2434086283407285
0.24257115211370905
0.24172700276934286
0.24280471122084596
0.2435787928330711
0.243682226151946
0.24335524340195436
0.24304494344532962
0.24479997330752976
0.2472089686697132
0.24952120383036852
0.2517800540522496
0.25294117647058734
0.25218044109305576
0.2515831970905199
0.2523372593507048
0.25410563544759845
0.2545760902205456
0.2529244936772204
0.25014180374361794
0.24780287611357554
0.24597777851923436
0.24445630776417113
0.24269460478462426
0.24201728337392728
0.24091288245303705
0.23817023122351522
0.23675886690467368
0.23578459177204544
0.23544759934603365
0.235163991858796
0.23430983283840962
0.2337626372159746
0.2340595909379058
0.233836041506789
0.2331754028894589
0.2334656834940433
0.23398618664709123
0.23381268559607524
0.23086984084615034
0.22787694771612466
0.229164859364051
0.2342597844583088
0.2418804844683185
0.2543925794935095
0.27680758066130506
0.3083280504487663
0.34405925728203846
0.3819158519902564
0.4101264555737204
0.4248206599713048
0.42708951986920607
0.42060992292549376
0.4100063394614786
0.39303326548997275
0.3648893930799765
0.32764005205031443
0.28664375563044187
0.24523038937639635
0.2183377264689191
0.2075506322778678
0.20698341730339248
0.2111374328517559
0.21704314170364608
0.22452704280804703
0.2335457609022047
0.24329518534583353
0.252060324980814
0.2595041873811343
0.26483600814120234
0.2681158453171391
0.2693236795569042
0.271075372860431
0.2735777918654692
0.27656067531947476
0.27991058022755255
0.2823562777351432
0.2850455440258909
0.28718761469420356
0.28865570051049266
0.2911047345767567
0.2946514964465642
0.2972840412398644
0.300293617163257
0.3029461813085975
0.30452437356110823
0.30696673451002554
0.31019318674718815
0.3140435754562736
0.31846451569850776
0.3215074572086342
0.32390644289479753
0.32747656067531866
0.3308331387007432
0.33464015214707465
0.3392813052617522
0.3432251176136924
0.34608121183810936
0.35006172633545674
0.3553301524807305
0.36168629675352754
0.36860965600079987
0.3752927830235886
0.3814987821560834
0.38820192853091245
0.39556237696439817
0.40311634580094013
0.4130926562343591
0.4241333288845876
0.4337626372159747
0.4435020519835834
0.4518734776951045
0.45851322945513917
0.46365820292949766
0.4661773047279028
0.46605385205698757
0.4642320910213198
0.4585599412765665
0.44874044910079663
0.4367088185245729
0.4227186280070726
0.40895866003803594
0.39539221247205547
0.38173567782189366
0.3677655066564337
0.3550498815521662
0.3433719261953213
0.33254812985886273
0.3227319742417662
0.3147409162190109
0.30758066130592826
0.30117780521170384
0.29562577157919245
0.29010710353341485
0.2857328751126081
0.28234626805912305
0.2802342264188708
0.2784191385005498
0.27721464081945807
0.2750792432684921
0.2728270661639577
0.27006773214106894
0.2675052550799098
0.2657869273631169
0.26444563077641636
0.2624637149244261
0.2591405024857354
0.2560241566847945
0.2546294751593199
0.25437923325881606
0.25385873010576815
0.2535717860598571
0.2536151613226111
0.253518401121083
0.2526141937205958
0.2521971238864228
0.2535317473557765
0.25490307297053744
0.25539021053685157
0.256271062026625
0.25768242634546656
0.25950418738113434
0.26062860765406487
0.26105902372293144
0.2623636181642247
0.26286410196523236
0.26186647092189047
0.2613726602382296
0.2602916152280531
0.2580994961796396
0.2549731407026786
0.2516632744986814
0.24956124253444933
0.24870374695538958
0.24795969437122486
0.2472656901671609
0.24654165693503655
0.24626138600647227
0.24683527409829437
0.2473157385472617
0.24795969437122486
0.2484234760268253
0.24786960728704352
0.24711888158553208
0.24663508057789135
0.2469286977411492
0.24805311801407975
0.24862700610590185
0.247959694371225
0.2472790364018546
0.24758933635847935
0.248046444896733
0.24845350505488586
0.24835007173601092
0.247872943845717
0.24628474191718608
0.244616462580494
0.24338860898868858
0.24294484668512845
0.2428747789529874
0.2420473124019881
0.2413499716392508
0.24088952654232373
0.24081612225150928
0.24053585132294497
0.24078275666477542
0.239885222381635
0.23896099562910758
0.23865069567248282
0.23793333555770518
0.23726268726435493
0.2363284508358073
0.23595141970571493
0.23554769610623544
0.23502385639451412
0.2345634112975871
0.23474692202462327
0.23403957158586577
0.2325080911547824
0.23176403857061773
